T (K),P (Mpa)
200.8,0.00827
215.7,0.02213
230.2,0.0564
240.4,0.09813
273.68,0.499
274.7,0.565
275.64,0.635
276.62,0.715
277.61,0.812
278.66,0.926
279.65,1.05
280.67,1.191
281.63,1.351
282.66,1.546
283.49,1.734
284.63,2.032
285.48,2.297
286.5,2.698
287.61,3.244
