T (K),P (Mpa)
190.15,0.089
198.15,0.139
208.15,0.231
218.15,0.367
243.15,0.983
262.4,1.84
278.1,4.249
283.8,7.579
289.4,14.414
292.8,22.367
294.7,28.866
297.3,40.836
298.6,48.343
299.3,52.844
300.6,62.097
301.9,72.568
302.1,74.291
